#MCNP     FACEMC
#Energy    Values    Error
 1.07924416173e-06 0.262821451104 0.0024 0.262134460951 0.00271771313208 0.00361625910268
 1.25029175953e-06 0.230738017429 0.0024 0.230488562082 0.00268499820184 0.00359738626811
 1.44844840434e-06 0.203333803479 0.0024 0.203179277436 0.0026603353809 0.0035802066832
 1.67801056356e-06 0.179585227273 0.0024 0.17972870991 0.00262404423216 0.00355890756373
 1.94395564453e-06 0.156932749562 0.0024 0.157395399182 0.00259668204561 0.00354634804558
 2.25204991551e-06 0.138230722709 0.0024 0.137984580326 0.00257203861248 0.00351160206782
 2.60897353098e-06 0.121646567476 0.0024 0.121117235121 0.0025463371141 0.00348389279521
 3.02246537186e-06 0.106775399865 0.0023 0.106117266698 0.00252591320565 0.00339511661766
 3.50149084137e-06 0.0935978218592 0.0023 0.0931613823516 0.00250508142441 0.00338494120249
 4.05643625443e-06 0.081697498741 0.0023 0.0817677213058 0.00248411959421 0.00338829762968
 4.69933403563e-06 0.0717275757137 0.0023 0.0716976629132 0.00246354146533 0.00336891144583
 5.44412360833e-06 0.0630551594747 0.0023 0.0628568570215 0.00243690745066 0.00334035982274
 6.30695363173e-06 0.055066191556 0.0023 0.055000220607 0.00242017358939 0.00333474837821
 7.30653213897e-06 0.0481306616962 0.0023 0.0483956929749 0.00239880124834 0.0033415883211
 8.464532168e-06 0.0421397425583 0.0023 0.0420297301593 0.0023816416976 0.0033022802302
 9.80606168021e-06 0.0371318055556 0.0023 0.0372409471192 0.00236091976295 0.00330573755523
 1.13602079557e-05 0.0321600119904 0.0022 0.032166594417 0.00234677944982 0.00321739179554
 1.31606682687e-05 0.0282181065701 0.0022 0.0281202322638 0.00233026557676 0.00319359005048
 1.52464805182e-05 0.0245309513176 0.0022 0.0245836845762 0.00231381649077 0.00319962811632
 1.76628696543e-05 0.0215615651503 0.0022 0.0215217098255 0.00229727399178 0.0031749172015
 2.04622282533e-05 0.0188232612313 0.0022 0.018825405773 0.00228601580779 0.00317303671914
 2.37052525035e-05 0.0163840275783 0.0022 0.0164247598034 0.00227299313928 0.00317116915934
 2.746225823e-05 0.0143614926853 0.0022 0.0143339023312 0.00226256721032 0.00314975890819
 3.18147054954e-05 0.0125291309932 0.0022 0.0125250814177 0.00225267039108 0.00314771598539
 3.68569648308e-05 0.0108935328899 0.0022 0.0108934304985 0.00224244316921 0.00314139552643
 4.26983633947e-05 0.0095113857439 0.0022 0.00953517893215 0.00222842847409 0.00313926976442
 4.94655554237e-05 0.00833173182819 0.0022 0.00827588988869 0.0022236739271 0.00310708939897
 5.73052683719e-05 0.00727112299465 0.0022 0.0072189196523 0.0022118470542 0.00309726049581
 6.63874842818e-05 0.00633516258078 0.0021 0.00631490887352 0.00220113654615 0.00303247747632
 7.69091253645e-05 0.00552882946697 0.0021 0.00550043948651 0.00219230939944 0.00302023422722
 8.90983237023e-05 0.00479437480893 0.0021 0.00479875836026 0.00218136334726 0.00303069615155
 0.000103219367649 0.00419162269129 0.0021 0.0041996850557 0.00217102535005 0.00302629829819
 0.000119578432177 0.00365306947608 0.0021 0.00365137046672 0.00216334665148 0.00301357184821
 0.000138530217415 0.00318375614553 0.0021 0.00318630817974 0.00215752546069 0.00301321330858
 0.000160485639322 0.00278170980059 0.0021 0.00278532175184 0.00214590356097 0.00300638127185
 0.000185920739237 0.00243493040293 0.0021 0.00243397146872 0.00213395624199 0.00299277635929
 0.000215387005495 0.00213621877964 0.0021 0.00213379227892 0.00211662521411 0.00297824066929
 0.000249523330892 0.00190586244541 0.002 0.00190156426711 0.00208794817485 0.00288476422033
 0.00028906986527 0.00175226619552 0.002 0.00175133125699 0.00201378506335 0.00283667703065
 0.00033488406358 0.00119008540057 0.002 0.00118619829903 0.00204243975583 0.00284925724019
 0.000387959277371 0.00116042120042 0.0021 0.001158646145 0.00209885556233 0.00296449771674
 0.000449446292813 0.00105982121212 0.0021 0.00105737216384 0.0021047299614 0.0029663244534
 0.000520678282247 0.0009282448339 0.0021 0.00092632359488 0.00209596072355 0.0029608527072
 0.000603199710263 0.000812269135245 0.0021 0.000808648682003 0.00210064474364 0.00295706515119
 0.000698799821056 0.000706361333073 0.0021 0.000705897147957 0.00209708687194 0.00296583902149
 0.000809551433131 0.000617786843876 0.0021 0.00061729328375 0.0020976575554 0.00296582124653
 0.000937855882524 0.000540116186188 0.0021 0.000540577418405 0.00209273391717 0.00296724675497
 0.00108649508899 0.000432743734336 0.0021 0.000433907001049 0.0021176082741 0.00299034224783
 0.0012586918741 0.000415278138528 0.0021 0.000414234747165 0.00208515861868 0.00295193718752
 0.00145817983898 0.000363772536198 0.0021 0.000363870912132 0.00208180745798 0.00295781206535
 0.00168928431696 0.00032025312374 0.0021 0.000319856561091 0.00207014905497 0.0029451647652
 0.00195701615621 0.000287599512874 0.002 0.000286944241571 0.00204179010047 0.00285161794185
 0.00226718036579 0.000239099128868 0.002 0.000239287667965 0.00202885907801 0.0028511531355
 0.00262650198096 0.000201048989114 0.0021 0.000200583418091 0.00207607997593 0.00294614465984
 0.00304277187649 0.000185597582811 0.0021 0.000185100758407 0.00207779411949 0.00294628024307
 0.00352501568988 0.000172524729521 0.002 0.000171635896699 0.00203158051556 0.00283615806745
 0.00408368951674 0.000136850091713 0.002 0.000136278250102 0.00205327276786 0.00285436689559
 0.00473090662179 0.000132539435809 0.002 0.000131601631061 0.00202469158447 0.00282580334644
 0.00548070008072 0.000133105119284 0.0019 0.000132872038954 0.00187960310369 0.00266794187399
 0.00634932704792 0.000107230694981 0.0018 0.000107722975322 0.00177691747516 0.00254092697992
 0.00735562124685 7.88290131457e-05 0.0017 7.8769998053e-05 0.00173975559757 0.00243061591857
 0.00852140132629 5.2988013425e-05 0.0019 5.30039720961e-05 0.00193770492424 0.00271461547377
 0.00987194393604 5.98738533692e-05 0.002 5.97538225907e-05 0.00200205239553 0.00282420562304
 0.0114365317798 5.55434782609e-05 0.002 5.54559824734e-05 0.00204010576651 0.00285242651801
 0.0132490885277 4.9719938335e-05 0.002 4.95400966629e-05 0.00206520724763 0.00286450658356
 0.015348914356 4.38855368234e-05 0.0021 4.39006495567e-05 0.00208108140509 0.00295751940097
 0.0177815380592 3.90225967062e-05 0.0021 3.8916131965e-05 0.00210124387813 0.00296262317459
 0.0205997042147 3.58224793388e-05 0.0021 3.58846050967e-05 0.00207585046139 0.00295794253755
 0.0238645167995 4.73266761769e-05 0.0017 4.72327191014e-05 0.00175792821394 0.0024406126067
 0.0276467640574 2.72285714286e-05 0.0017 2.73410877174e-05 0.00172689285656 0.00243326737317
 0.032028453342 1.885857963e-05 0.0018 1.87948002119e-05 0.00179783223885 0.00253544809169
 0.0371045892152 2.05797394017e-05 0.0018 2.05150317788e-05 0.00184376147201 0.00256861245175
 0.0429852333527 1.94263307985e-05 0.0018 1.94446755712e-05 0.00185053709124 0.00258400471274
 0.0497978909203 1.85878572405e-05 0.0018 1.86103923289e-05 0.00182202776473 0.00256431285113
 0.0576902751642 1.56867327668e-05 0.0018 1.57111483237e-05 0.00185609379113 0.00258957724447
 0.066833510155 1.69413143148e-05 0.0018 1.694819367e-05 0.00177552139735 0.00252936135594
 0.0774258411306 1.64176781003e-05 0.0017 1.63823691576e-05 0.00166452652412 0.00237409485971
 0.089696932884 1.00405405405e-05 0.0018 1.00786976637e-05 0.00177325324328 0.00253634477538
 0.103912849397 1.10735400144e-05 0.0017 1.10320109078e-05 0.0017599436958 0.00243774012303
 0.120381822683 1.21810520362e-05 0.0017 1.21621446402e-05 0.00166677592944 0.00237709055484
 0.139460935936 9.98466796875e-06 0.0016 9.9538452293e-06 0.00164853574774 0.00229022618906
 0.161563865861 9.44428992836e-06 0.0016 9.44394242074e-06 0.00162187616241 0.0022781791677
 0.187169852093 9.3941775837e-06 0.0015 9.38330578126e-06 0.00152882502019 0.00213932101035
 0.216834088154 8.03971742543e-06 0.0015 8.05997611653e-06 0.00151611416678 0.00213811936583
 0.251199759255 8.44745119306e-06 0.0014 8.44140398215e-06 0.00144763159327 0.00201241962659
 0.291011987953 9.22269536734e-06 0.0013 9.22992438923e-06 0.00134273730547 0.00187040673724
 0.337133990031 8.03156937992e-06 0.0013 8.02289716029e-06 0.00130582143613 0.0018406090298
 0.390565790893 5.65843068875e-06 0.0013 5.66295982004e-06 0.00135372369019 0.00187835278007
 0.452465908293 5.520331076e-06 0.0013 5.50925964888e-06 0.00128228128358 0.00182232943147
 0.524176471523 6.85037027413e-06 0.0012 6.85760494245e-06 0.00120878909779 0.00170508127834
 0.607252321693 8.19643417807e-06 0.0011 8.22462642438e-06 0.00108800921956 0.00155250102787
 0.703494724076 5.54572645436e-06 0.0012 5.53627067378e-06 0.00120569021167 0.00169818417411
 0.814990423458 3.93060661765e-06 0.0013 3.91771201812e-06 0.00132327697536 0.00184892448492
 0.944156889311 3.49899040888e-06 0.0013 3.49258022136e-06 0.00129421314444 0.00183102964773
 1.09379473179 3.66440846824e-06 0.0012 3.67120497238e-06 0.00118574988774 0.00169013897202
 1.26714842503 4.96116603976e-06 0.0009 4.96157640296e-06 0.000945815231396 0.00130569845304
 1.46797665449 8.79805194805e-06 0.0006 8.81424847966e-06 0.000616700730318 0.00086200234478
 1.70063381335 1.76433319984e-06 0.0013 1.76068412116e-06 0.00133257639622 0.00185780477313
 1.97016441525 1.66805737988e-06 0.0013 1.66759572328e-06 0.00132439411229 0.00185529341988
 2.28241247037 1.94658711217e-05 0.0003 1.94611616503e-05 0.000263205649889 0.000398998939921
