#MCNP     FACEMC
#Energy    Values    Error
 1.07924416173e-06 0.262821451104 0.0024 0.262134483353 0.00271771302253 0.00361625932982
 1.25029175953e-06 0.230738017429 0.0024 0.230488582642 0.00268499809637 0.00359738651044
 1.44844840434e-06 0.203333803479 0.0024 0.20317972134 0.00266033045499 0.00358021085048
 1.67801056356e-06 0.179585227273 0.0024 0.179728825349 0.00262404271342 0.00355890872802
 1.94395564453e-06 0.156932749562 0.0024 0.157395274813 0.00259668410193 0.00354634675793
 2.25204991551e-06 0.138230722709 0.0024 0.137984180973 0.00257204457073 0.00351159625311
 2.60897353098e-06 0.121646567476 0.0024 0.121117100268 0.00254633984526 0.00348389089505
 3.02246537186e-06 0.106775399865 0.0023 0.106116867408 0.00252592005335 0.00339510887474
 3.50149084137e-06 0.0935978218592 0.0023 0.093161390347 0.00250508132817 0.00338494142243
 4.05643625443e-06 0.081697498741 0.0023 0.0817673596041 0.00248412679316 0.00338828792841
 4.69933403563e-06 0.0717275757137 0.0023 0.0716973740687 0.00246354823591 0.00336890282057
 5.44412360833e-06 0.0630551594747 0.0023 0.062856862503 0.00243690735543 0.003340360045
 6.30695363173e-06 0.055066191556 0.0023 0.055000225293 0.00242017349785 0.00333474859606
 7.30653213897e-06 0.0481306616962 0.0023 0.0483957153068 0.00239880027411 0.00334158915597
 8.464532168e-06 0.0421397425583 0.0023 0.0420294279057 0.00238164443171 0.00330225844368
 9.80606168021e-06 0.0371318055556 0.0023 0.0372409670211 0.00236092406104 0.00330574240957
 1.13602079557e-05 0.0321600119904 0.0022 0.0321662821625 0.00234678737584 0.00321736634657
 1.31606682687e-05 0.0282181065701 0.0022 0.0281201039962 0.00233027217015 0.00319358026091
 1.52464805182e-05 0.0245309513176 0.0022 0.0245836303114 0.00231382066743 0.00319962408698
 1.76628696543e-05 0.0215615651503 0.0022 0.0215216137148 0.00229728005668 0.00317490739526
 2.04622282533e-05 0.0188232612313 0.0022 0.0188253848269 0.00228601819549 0.00317303490926
 2.37052525035e-05 0.0163840275783 0.0022 0.0164246770419 0.0022729991582 0.00317115751599
 2.746225823e-05 0.0143614926853 0.0022 0.0143337890211 0.00226257640113 0.00314974058587
 3.18147054954e-05 0.0125291309932 0.0022 0.0125250648568 0.00225267309602 0.00314771375795
 3.68569648308e-05 0.0108935328899 0.0022 0.0108933972533 0.00224244806688 0.0031413894354
 4.26983633947e-05 0.0095113857439 0.0022 0.00953517968669 0.00222842839626 0.00313926995731
 4.94655554237e-05 0.00833173182819 0.0022 0.00827589053289 0.00222367385076 0.00310708958692
 5.73052683719e-05 0.00727112299465 0.0022 0.00721884132539 0.0022118472012 0.0030972269933
 6.63874842818e-05 0.00633516258078 0.0021 0.00631490533792 0.00220113781106 0.00303247669077
 7.69091253645e-05 0.00552882946697 0.0021 0.00550043138124 0.00219231226013 0.00302023183192
 8.90983237023e-05 0.00479437480893 0.0021 0.00479874737761 0.0021813672591 0.00303069203608
 0.000103219367649 0.00419162269129 0.0021 0.00419968537302 0.00217102527375 0.00302629847191
 0.000119578432177 0.00365306947608 0.0021 0.00365137073855 0.00216334658171 0.00301357202251
 0.000138530217415 0.00318375614553 0.0021 0.00318629338929 0.00215753062871 0.00301320302795
 0.000160485639322 0.00278170980059 0.0021 0.00278532100536 0.00214590421194 0.00300638093198
 0.000185920739237 0.00243493040293 0.0021 0.00243396048882 0.00213396296015 0.00299276764506
 0.000215387005495 0.00213621877964 0.0021 0.00213378719341 0.00211662903512 0.0029782362806
 0.000249523330892 0.00190586244541 0.002 0.00190156191434 0.00208795049435 0.00288476232231
 0.00028906986527 0.00175226619552 0.002 0.00175132705505 0.00201378895207 0.00283667298235
 0.00033488406358 0.00119008540057 0.002 0.0011861983808 0.0020424396926 0.00284925739157
 0.000387959277371 0.00116042120042 0.0021 0.00115864320398 0.00209885947453 0.00296449295324
 0.000449446292813 0.00105982121212 0.0021 0.00105736666427 0.00210473463257 0.00296631232414
 0.000520678282247 0.0009282448339 0.0021 0.000926315470527 0.00209596905131 0.00296083260967
 0.000603199710263 0.000812269135245 0.0021 0.000808647561702 0.0021006473012 0.00295706285516
 0.000698799821056 0.000706361333073 0.0021 0.000705895595217 0.00209709044652 0.00296583502182
 0.000809551433131 0.000617786843876 0.0021 0.000617293328712 0.00209765748597 0.00296582141353
 0.000937855882524 0.000540116186188 0.0021 0.000540577457604 0.0020927338494 0.00296724692226
 0.00108649508899 0.000432743734336 0.0021 0.000433907530244 0.0021176060322 0.00299034429872
 0.0012586918741 0.000415278138528 0.0021 0.000414234792028 0.00208515849212 0.00295193741827
 0.00145817983898 0.000363772536198 0.0021 0.000363870310284 0.00208181035096 0.00295780921036
 0.00168928431696 0.00032025312374 0.0021 0.000319853714134 0.00207015462091 0.00294514245366
 0.00195701615621 0.000287599512874 0.002 0.000286943457611 0.00204179397347 0.00285161291143
 0.00226718036579 0.000239099128868 0.002 0.000239287684368 0.00202885901468 0.00285115328581
 0.00262650198096 0.000201048989114 0.0021 0.000200583432389 0.00207607990354 0.00294614481907
 0.00304277187649 0.000185597582811 0.0021 0.000185100771919 0.00207779404991 0.00294628040932
 0.00352501568988 0.000172524729521 0.002 0.000171635908602 0.00203158044936 0.0028361582172
 0.00408368951674 0.000136850091713 0.002 0.000136278424821 0.00205327195141 0.00285436997269
 0.00473090662179 0.000132539435809 0.002 0.000131601640086 0.00202469152031 0.00282580349492
 0.00548070008072 0.000133105119284 0.0019 0.00013287171197 0.00187960623393 0.00266793750605
 0.00634932704792 0.000107230694981 0.0018 0.000107723254805 0.00177691458872 0.00254093153514
 0.00735562124685 7.88290131457e-05 0.0017 7.87700027865e-05 0.0017397555509 0.00243061603127
 0.00852140132629 5.2988013425e-05 0.0019 5.30038853597e-05 0.00193770750257 0.00271461287307
 0.00987194393604 5.98738533692e-05 0.002 5.97535511738e-05 0.00200205648752 0.00282419568394
 0.0114365317798 5.55434782609e-05 0.002 5.5455986078e-05 0.00204010570408 0.0028524266589
 0.0132490885277 4.9719938335e-05 0.002 4.95401000592e-05 0.00206520718158 0.00286450673267
 0.015348914356 4.38855368234e-05 0.0021 4.39006524405e-05 0.00208108134043 0.00295751954972
 0.0177815380592 3.90225967062e-05 0.0021 3.89161345397e-05 0.00210124381064 0.00296262332298
 0.0205997042147 3.58224793388e-05 0.0021 3.58846073618e-05 0.00207585039589 0.00295794267813
 0.0238645167995 4.73266761769e-05 0.0017 4.72327219083e-05 0.00175792816364 0.00244061271565
 0.0276467640574 2.72285714286e-05 0.0017 2.73410890524e-05 0.00172689281554 0.00243326746262
 0.032028453342 1.885857963e-05 0.0018 1.87948012794e-05 0.00179783219409 0.00253544820418
 0.0371045892152 2.05797394017e-05 0.0018 2.05150329398e-05 0.00184376142111 0.0025686125608
 0.0429852333527 1.94263307985e-05 0.0018 1.94446682829e-05 0.00185053750648 0.00258400404214
 0.0497978909203 1.85878572405e-05 0.0018 1.86103932906e-05 0.00182202772155 0.00256431295289
 0.0576902751642 1.56867327668e-05 0.0018 1.57111491792e-05 0.00185609374641 0.00258957735333
 0.066833510155 1.69413143148e-05 0.0018 1.69481413058e-05 0.00177552432792 0.00252935559988
 0.0774258411306 1.64176781003e-05 0.0017 1.63823698977e-05 0.00166452648793 0.0023740949417
 0.089696932884 1.00405405405e-05 0.0018 1.00787214103e-05 0.00177325048484 0.00253634880807
 0.103912849397 1.10735400144e-05 0.0017 1.10320242832e-05 0.00175994192653 0.00243774181082
 0.120381822683 1.21810520362e-05 0.0017 1.21621895383e-05 0.00166677389571 0.00237709790858
 0.139460935936 9.98466796875e-06 0.0016 9.95384299937e-06 0.00164853614287 0.00229022595865
 0.161563865861 9.44428992836e-06 0.0016 9.44391386851e-06 0.00162187884161 0.00227817418722
 0.187169852093 9.3941775837e-06 0.0015 9.3832684485e-06 0.00152882612067 0.00213931328339
 0.216834088154 8.03971742543e-06 0.0015 8.05994074876e-06 0.00151611309685 0.00213810922111
 0.251199759255 8.44745119306e-06 0.0014 8.44135251018e-06 0.00144763089199 0.002012406852
 0.291011987953 9.22269536734e-06 0.0013 9.22991786042e-06 0.00134273776564 0.00187040574507
 0.337133990031 8.03156937992e-06 0.0013 8.02290378375e-06 0.0013058205601 0.00184060992919
 0.390565790893 5.65843068875e-06 0.0013 5.66298039369e-06 0.00135372410645 0.00187835990464
 0.452465908293 5.520331076e-06 0.0013 5.5092693306e-06 0.00128227956804 0.00182233143164
 0.524176471523 6.85037027413e-06 0.0012 6.85759123296e-06 0.00120879001005 0.0017050785177
 0.607252321693 8.19643417807e-06 0.0011 8.22461941306e-06 0.00108800990012 0.00155250018462
 0.703494724076 5.54572645436e-06 0.0012 5.53627079075e-06 0.00120569020358 0.00169818420427
 0.814990423458 3.93060661765e-06 0.0013 3.91771528012e-06 0.00132327605959 0.00184892537326
 0.944156889311 3.49899040888e-06 0.0013 3.49258808026e-06 0.00129421180491 0.00183103282451
 1.09379473179 3.66440846824e-06 0.0012 3.67120839512e-06 0.00118574907746 0.00169013997719
 1.26714842503 4.96116603976e-06 0.0009 4.96157641933e-06 0.000945815240695 0.00130569846409
 1.46797665449 8.79805194805e-06 0.0006 8.81424786456e-06 0.000616700773625 0.000862002315722
 1.70063381335 1.76433319984e-06 0.0013 1.76068420921e-06 0.00133257639023 0.00185780486175
 1.97016441525 1.66805737988e-06 0.0013 1.66759569126e-06 0.00132439415756 0.00185529341655
 2.28241247037 1.94658711217e-05 0.0003 1.946115888e-05 0.000263205627599 0.000398998868426
